# Step PotentialEnergy(eV) KineticEnergy(eV) TotalEnergy(eV)
0 48.169575718357 62.380945977 110.550521695357
10 49.1484369335123 61.4021119034379 110.55054883695
20 51.6961382782368 58.8544935065606 110.550631784797
30 55.6361296765077 54.9146810593609 110.550810735869
40 60.6265520561173 49.9245685620917 110.551120618209
50 66.1245028406319 44.4270433762163 110.551546216848
60 71.4239782569628 39.1280158103175 110.55199406728
70 75.8020687825724 34.7502517884012 110.552320570974
80 78.7310162486849 31.8213959898538 110.552412238539
90 80.0448346727745 30.507420307442 110.552254980216
100 79.9637536793809 30.5881818492487 110.55193552863
110 78.9708028664528 31.5807816409486 110.551584507401
120 77.6177413236022 32.9335711163588 110.551312439961
130 76.3536344725489 34.1975391413521 110.551173613901
140 75.4340424760595 35.1171179288651 110.551160404925
150 74.92323874274 35.6279840022807 110.551222745021
160 74.7616402763219 35.7896672933271 110.551307569649
170 74.8425154187039 35.7088734319356 110.551388850639
180 75.0557265524608 35.4957321171336 110.551458669594
190 75.3060309909938 35.2454755637223 110.551506554716
200 75.530474344527 35.0210484889098 110.551522833437
210 75.7124900622395 34.8390187085378 110.551508770777
220 75.8805880895529 34.6708860887003 110.551474178253
230 76.0934017996697 34.4580330064168 110.551434806086
240 76.4146583788379 34.1367552557861 110.551413634624
250 76.8786624661902 33.6727694462198 110.55143191241
260 77.4599316909493 33.0915591554389 110.551490846388
270 78.0715729815849 32.4799929587281 110.551565940313
280 78.5996654157102 31.95196027694 110.55162569265
290 78.9487029494571 31.6029527718717 110.551655721329
300 79.0656351295855 31.4860257658195 110.551660895405
310 78.938052209082 31.6135951591012 110.551647368183
320 78.5881516989726 31.9634615480881 110.551613247061
330 78.0743530335275 32.4772059847545 110.551559018282
340 77.4884335631872 33.0630617056575 110.551495268845
350 76.9388647540042 33.6125694514447 110.551434205449
360 76.5306455096817 34.020736591254 110.551382100936
370 76.351644086089 34.1997004819088 110.551344567998
380 76.4600594657159 34.0912740028546 110.55133346857
390 76.865294055929 33.6860695854931 110.551363641422
400 77.5076425111326 33.0437979369322 110.551440448065
410 78.2542934902697 32.2972536682961 110.551547158566
420 78.9281621833254 31.6234828819233 110.551645065249
430 79.367053176228 31.184641663191 110.551694839419
440 79.4819435500183 31.06974174762 110.551685297638
450 79.2752277588773 31.2764097117456 110.551637470623
460 78.8134679422131 31.7381102564757 110.551578198689
470 78.1890110157904 32.3625075145899 110.55151853038
480 77.4998743394419 33.0515846092663 110.551458948708
490 76.8436303260054 33.707772627739 110.551402953744
500 76.3090180911714 34.2423414482722 110.551359539444
510 75.9621497214493 34.5891872729151 110.551336994364
520 75.8353880472726 34.7159480888108 110.551336136083
530 75.9273266258668 34.6240215737342 110.551348199601
540 76.2155893292988 34.3357715780631 110.551360907362
550 76.6736017171606 33.8777685458079 110.551370262969
560 77.2756682423922 33.2757196160218 110.551387858414
570 77.9814081713595 32.5700245328614 110.551432704221
580 78.7113379654882 31.8401725291327 110.551510494621
590 79.3413277580678 31.2102745065242 110.551602264592
600 79.7309066480399 30.8207700241874 110.551676672227
610 79.7693733456756 30.7823360807642 110.55170942644
620 79.4129022529654 31.1387875806417 110.551689833607
630 78.7010510494318 31.8505692784713 110.551620327903
640 77.7514824721956 32.8000367160288 110.551519188224
650 76.7305128152298 33.8209051319542 110.551417947184
660 75.8053951142612 34.7459508225086 110.55134593677
670 75.1004415563936 35.450874029127 110.551315585521
680 74.6769044906352 35.8744222309673 110.551326721603
690 74.5313441552188 36.020037387841 110.55138154306
700 74.5940972100718 35.9573819297765 110.551479139848
710 74.7353201227235 35.8162687293319 110.551588852055
720 74.8104977002267 35.7411534888914 110.551651189118
730 74.7409337918044 35.8106938053927 110.551627597197
740 74.564506429283 35.9870345144795 110.551540943762
750 74.4046365988083 36.1468179299075 110.551454528716
760 74.383567824576 36.1678532587061 110.551421083282
770 74.5478829554623 36.0035708516696 110.551453807132
780 74.848967705312 35.7025587370101 110.551526442322
790 75.1805934190943 35.3709975747302 110.551590993825
800 75.4477601625837 35.1038472217926 110.551607384376
810 75.6241920130711 34.9273762046222 110.551568217693
820 75.7636932583083 34.7878055727431 110.551498831051
830 75.9643133713405 34.5871238065815 110.551437177922
840 76.3129698012599 34.2384430433541 110.551412844614
850 76.8413064739975 33.7101296239211 110.551436097919
860 77.5101175983966 33.0413796538866 110.551497252283
870 78.2242520961702 32.3273206453865 110.551572741557
880 78.868912150824 31.6827229880451 110.551635138869
890 79.3515021492727 31.200163002229 110.551665151502
900 79.6307065167564 30.9209530012178 110.551659517974
910 79.721345339952 30.8302828194947 110.551628159447
920 79.6789066800389 30.8726787492062 110.551585429245
930 79.576210632013 30.9753356054262 110.551546237439
940 79.4789834264198 31.0725428267901 110.55152625321
950 79.4215636074189 31.129974553108 110.551538160527
960 79.3885242430949 31.1630588870503 110.551583130145
970 79.314248015492 31.2373953791692 110.551643394661
980 79.1102714387986 31.4414133449434 110.551684783742
990 78.7151269565586 31.8365491166356 110.551676073194
1000 78.1385035742331 32.4131115092962 110.551615083529
1010 77.4642581099711 33.0872761690243 110.551534278995
1020 76.8056262973818 33.7458477170999 110.551474014482
1030 76.2490004521355 34.3024491089861 110.551449561122
1040 75.8308336005679 34.7206127773687 110.551446377937
1050 75.5550776417865 34.9963662071636 110.55144384895
1060 75.4203456043648 35.1310917156691 110.551437320034
1070 75.4271549308465 35.1242812942597 110.551436225106
1080 75.5667673180733 34.9846788646984 110.551446182772
1090 75.8145606422491 34.7368989141456 110.551459556395
1100 76.1401786574354 34.4112871496527 110.551465807088
1110 76.5210940030417 34.0303729322827 110.551466935324
1120 76.939677897369 33.6117992351952 110.551477132564
1130 77.364483345905 33.1870237943773 110.551507140282
1140 77.7368368850492 32.8147148636027 110.551551748652
1150 77.9803745958603 32.5712155133214 110.551590109182
1160 78.033404555825 32.5181905505338 110.551595106359
1170 77.8890426435508 32.6625086903269 110.551551333878
1180 77.6155483641755 32.9359280382916 110.551476402467
1190 77.3283114342649 33.2231074382208 110.551418872486
1200 77.1197544505986 33.4316626587552 110.551417109354
1210 77.0049788506481 33.5464774399527 110.551456290601
1220 76.9401657500279 33.6113160878569 110.551481837885
1230 76.8945263168976 33.6569365033036 110.551462820201
1240 76.8923094658204 33.6591145456969 110.551424011517
1250 76.9818641546104 33.5695453235283 110.551409478139
1260 77.1771703513622 33.3742671768335 110.551437528196
1270 77.4322005641335 33.1192964490042 110.551497013138
1280 77.6567269837821 32.8948383023019 110.551565286084
1290 77.7508206375396 32.8007961234817 110.551616761021
1300 77.6437044239653 32.9079232116466 110.551627635612
1310 77.3272868558172 33.2243045514335 110.551591407251
1320 76.8634826579907 33.6880473504957 110.551530008486
1330 76.3523899879477 34.1990881505523 110.5514781385
1340 75.8832781976731 34.668175053937 110.55145325161
1350 75.5084728316894 35.0429716518408 110.55144448353
1360 75.255285275992 35.2961447386255 110.551430014617
1370 75.1531741908469 35.3982281223142 110.551402313161
1380 75.2422372031512 35.3091407152942 110.551377918445
1390 75.5501441404464 35.0012393748929 110.551383515339
1400 76.05702597587 34.4944028786775 110.551428854548
1410 76.6846960545974 33.866796548595 110.551492603192
1420 77.3279660005634 33.2235741300217 110.551540130585
1430 77.9034159174759 32.6481410273048 110.551556944781
1440 78.3712063249706 32.1803531468735 110.551559471844
1450 78.7155540041965 31.836017729049 110.551571733245
1460 78.9141762739205 31.6374212240356 110.551597497956
1470 78.9334157653855 31.618202539876 110.551618305261
1480 78.752454668448 31.7991583843826 110.551613052831
1490 78.3913443414094 32.1602295198295 110.551573861239
1500 77.9207805918669 32.6307274456919 110.551508037559
1510 77.4495099190013 33.1019238894725 110.551433808474
1520 77.0954893600548 33.4558850791032 110.551374439158
1530 76.9506078172813 33.6007416563116 110.551349473593
1540 77.052398401109 33.4989666726099 110.551365073719
1550 77.3760435961593 33.1753680901723 110.551411686332
1560 77.8490188097685 32.7024543796179 110.551473189386
1570 78.3756071198828 32.1759286710309 110.551535790914
1580 78.8589502392616 31.6926360285874 110.551586267849
1590 79.2215702732638 31.3300409012108 110.551611174475
1600 79.4245271551107 31.1270799999257 110.551607155036
1610 79.4722021572829 31.0793859257998 110.551588083083
1620 79.3939726417315 31.157601165677 110.551573807409
1630 79.2177235968018 31.3338461243507 110.551569721153
1640 78.9620941334912 31.5894665608307 110.551560694322
1650 78.6553511942222 31.8961777634976 110.55152895772
1660 78.3572481754206 32.1942291782133 110.551477353634
1670 78.1532489278037 32.3981822303211 110.551431158125
1680 78.1186459533348 32.4327709926536 110.551416945988
1690 78.2808973090839 32.2705446391385 110.551441948222
1700 78.6086888912824 31.9428033561031 110.551492247386
1710 79.030890519911 31.5206565132498 110.551547033161
1720 79.4660796774103 31.085513452367 110.551593129777
1730 79.8423265128467 30.7093010836483 110.551627596495
1740 80.1030366811515 30.4486130603871 110.551649741539
1750 80.2093368591327 30.3423166764928 110.551653535626
1760 80.1491492974118 30.4024806927292 110.551629990141
1770 79.9496674930419 30.6019104852829 110.551577978325
1780 79.6787957092406 30.8727148495342 110.551510558775
1790 79.4270941280034 31.1243537525641 110.551447880567
1800 79.2792195982326 31.2721859930451 110.551405591278
1810 79.2902256885089 31.2611666707104 110.551392359219
1820 79.4714284024538 31.0799846841299 110.551413086584
1830 79.7834859431768 30.7679794057136 110.55146534889
1840 80.1418527552947 30.409679729724 110.551532485019
1850 80.4425089958718 30.1090804797329 110.551589475605
1860 80.5989984289664 29.9526216601601 110.551620089126
1870 80.5677055789478 29.9839176978728 110.551623276821
1880 80.3516857303021 30.1999184903085 110.551604220611
1890 79.9930167024595 30.5585533078522 110.551570010312
1900 79.5597926476024 30.9917412748294 110.551533922432
1910 79.1244195526922 31.4270922955973 110.551511848289
1920 78.7391386751814 31.8123719380739 110.551510613255
1930 78.4242849119903 32.1272394193828 110.551524331373
1940 78.1745204077915 32.377021877212 110.551542285004
1950 77.9731252042654 32.5784315781917 110.551556782457
1960 77.8037069199887 32.7478568981944 110.551563818183
1970 77.657636292969 32.8939242194488 110.551560512418
1980 77.5398102467731 33.0117348519954 110.551545098769
1990 77.4722752227272 33.0792440470415 110.551519269769
2000 77.4924319521401 33.0590567899944 110.551488742134
2010 77.6449826238217 32.9064783370911 110.551460960913
2020 77.9704519942206 32.5809916954063 110.551443689627
2030 78.4922023430537 32.0592439264518 110.551446269505
2040 79.201073042461 31.350406423995 110.551479466456
2050 80.0393149352915 30.5122343283838 110.551549263675
2060 80.8936313469455 29.658014581712 110.551645928658
2070 81.6123570648439 28.9393815719965 110.55173863684
2080 82.0522826336021 28.4995065366893 110.551789170291
2090 82.1341561808727 28.4176250821655 110.551781263038
2100 81.8664961166507 28.6852398086173 110.551735925268
2110 81.3177093632339 29.2339809584836 110.551690321718
2120 80.5649079417184 29.9867538483026 110.551661790021
2130 79.6675012665234 30.8841366125347 110.551637879058
2140 78.6801505627081 31.8714481991322 110.55159876184
2150 77.6767924843977 32.8747492154204 110.551541699818
2160 76.7531216665131 33.7983621616519 110.551483828165
2170 76.0027349571783 34.548712723099 110.551447680277
2180 75.4858610166734 35.0655848897669 110.55144590644
2190 75.2117353152456 35.3397393519607 110.551474667206
2200 75.1441281455392 35.4073877061977 110.551515851737
2210 75.2268021170235 35.3247434831675 110.551545600191
2220 75.4162544178721 35.1352929153068 110.551547333179
2230 75.7031572280786 34.8483672650897 110.551524493168
2240 76.1057114701536 34.4457913401849 110.551502810338
2250 76.633576275934 33.9179385775632 110.551514853497
2260 77.2447740043877 33.3068002705022 110.55157427489
2270 77.8306073056239 32.721052515617 110.551659821241
2280 78.2492938767551 32.3024307244938 110.551724601249
2290 78.3943191259714 32.1574073432102 110.551726469182
2300 78.2548573981285 32.2968000375771 110.551657435706
2310 77.9274276590697 32.6241211927312 110.551548851801
2320 77.5714929010295 32.9799554353799 110.551448336409
2330 77.3404420201344 33.2109474486991 110.551389468833
2340 77.3299817742254 33.2213973163853 110.551379090611
2350 77.5633154236606 32.9880898220565 110.551405245717
2360 78.0045314566072 32.5469189186111 110.551450375218
2370 78.5828581731114 31.9686402294812 110.551498402593
2380 79.2169816963008 31.334556059281 110.551537755582
2390 79.8335521538711 30.718014112521 110.551566266392
2400 80.3724098761509 30.179183960313 110.551593836464
2410 80.775932708812 29.7756969545807 110.551629663393
2420 80.9806941182598 29.5709649727438 110.551659091004
2430 80.9405081082561 29.6111387743173 110.551646882573
2440 80.6736545254135 29.877925396386 110.5515799218
2450 80.2785126556404 30.2729797961152 110.551492451756
2460 79.8859429546504 30.6654888752477 110.551431829898
2470 79.5923999655655 30.9590144719234 110.551414437489
2480 79.4326390816699 31.1187877099669 110.551426791637
2490 79.3942542841308 31.1572008232663 110.551455107397
2500 79.4368152658655 31.1146840352827 110.551499301148
2510 79.4958378843289 31.0557212027188 110.551559087048
2520 79.4874389026857 31.0641790272484 110.551617929934
2530 79.3329849372199 31.2186659080387 110.551650845259
2540 78.993483619307 31.5581618638827 110.55164548319
2550 78.4866717902511 32.064936359475 110.551608149726
2560 77.8784006704785 32.6731518881674 110.551552558646
2570 77.2622809510612 33.2892105751642 110.551491526225
2580 76.7391206805446 33.8123173881529 110.551438068698
2590 76.3961876992475 34.1552172427239 110.551404941971
2600 76.2874873354655 34.2639123097557 110.551399645221
2610 76.4215534207453 34.1298693355581 110.551422756303
2620 76.7596649446846 33.7918043940612 110.551469338746
2630 77.2236689245053 33.327858292447 110.551527216952
2640 77.7151794528536 32.8363984711644 110.551577924018
2650 78.1431551297357 32.4084541362377 110.551609265973
2660 78.4424810510099 32.1091463450763 110.551627396086
2670 78.568476536544 31.9831688621453 110.551645398689
2680 78.4834006542634 32.0682526991114 110.551653353375
2690 78.1734232937262 32.3781894333237 110.55161272705
2700 77.7002399401535 32.8512621326853 110.551502072839
2710 77.2255907411017 33.3257734798908 110.551364220992
2720 76.9485268439854 33.602754863126 110.551281707111
2730 76.9897770675262 33.5615240389716 110.551301106498
2740 77.3248673502463 33.2265272077534 110.551394558
2750 77.8194410114935 32.7320533356921 110.551494347186
2760 78.3213185536088 32.2302394213004 110.551557974909
2770 78.7213328058529 31.8302640283365 110.551596834189
2780 78.9439964968198 31.6076441171121 110.551640613932
2790 78.9145338253667 31.6371485038149 110.551682329182
2800 78.5732084586326 31.978466986767 110.5516754454
2810 77.9390387934449 32.612549123197 110.551587916642
2820 77.1514552945152 33.3999858261679 110.551441120683
2830 76.437973167918 34.1133164793192 110.551289647237
2840 76.0334191936147 34.5177601557846 110.551179349399
2850 76.1081339951654 34.4429963362401 110.551130331405
2860 76.731596821975 33.8195519543089 110.551148776284
2870 77.858659260954 32.6925842527279 110.551243513682
2880 79.3190856745626 31.2323324169555 110.551418091518
2890 80.8226165994157 29.7290218772024 110.551638476618
2900 82.0198599281802 28.531962918907 110.551822847087
2910 82.6265757097305 27.9253125531938 110.551888262924
2920 82.5446208295872 28.0071922438334 110.551813073421
2930 81.8940791717081 28.6575677770842 110.551646948792
2940 80.9411911609063 29.6102767345139 110.55146789542
2950 79.9805073666552 30.5708300340398 110.551337400695
2960 79.2372798005224 31.3140023530346 110.551282153557
2970 78.8210337307696 31.7302633805554 110.551297111325
2980 78.7288117505847 31.8225461151996 110.551357865784
2990 78.880377236852 31.671057288406 110.551434525258
3000 79.1639031420037 31.3875997974779 110.551502939482
3010 79.4742774672069 31.0772736635715 110.551551130778
3020 79.7337395381675 30.8178395101921 110.55157904836
3030 79.8948353754557 30.6567561546962 110.551591530152
3040 79.9354124281748 30.616177878984 110.551590307159
3050 79.8566516378437 30.6949218055736 110.551573443417
3060 79.6851933712934 30.8663483873236 110.551541758617
3070 79.4710562925421 31.0804460051543 110.551502297696
3080 79.2765112179407 31.2749537166318 110.551464934573
3090 79.1600080496226 31.3914318268663 110.551439876489
3100 79.1590619077109 31.3923773488951 110.551439256606
3110 79.2718720870623 31.2796009326824 110.551473019745
3120 79.444601987392 31.1069339949238 110.551535982316
3130 79.5811368977338 30.9704655861727 110.551602483906
3140 79.5811372549146 30.9705041013433 110.551641356258
3150 79.3853743335691 31.1662640119733 110.551638345542
3160 78.9974612680176 31.5541413852999 110.551602653318
3170 78.4724744380129 32.0790770639545 110.551551501967
3180 77.8928985369551 32.6585921135741 110.551490650529
3190 77.3579969935654 33.1934173894086 110.551414382974
3200 76.9867342178468 33.5645928715096 110.551327089356
3210 76.9061931328176 33.6450669973224 110.55126013014
3220 77.2045114814849 33.3467469193428 110.551258400828
3230 77.8677170707578 32.6836286345674 110.551345705325
3240 78.7479113793564 31.8035912280102 110.551502607367
3250 79.5935874717404 30.9580875503688 110.551675022109
3260 80.1308034894219 30.420998027534 110.551801516956
3270 80.1566884966267 30.3951496363737 110.551838133
3280 79.6079536469594 30.9438190016123 110.551772648572
3290 78.5812771312778 31.970351629822 110.5516287611
3300 77.2986528798772 33.2528035110928 110.55145639097
3310 76.0322343774311 34.5190746398441 110.551309017275
3320 75.0219038659681 35.5293188905827 110.551222756551
3330 74.4169399133276 36.1342697686671 110.551209681995
3340 74.2537535592601 36.2975078393756 110.551261398636
3350 74.4661435630194 36.0852102965604 110.55135385958
3360 74.9205887594418 35.6308649878242 110.551453747266
3370 75.4660959039974 35.0854339369073 110.551529840905
3380 75.9817358324747 34.5698294444704 110.551565276945
3390 76.4039877246601 34.1475748602861 110.551562584946
3400 76.725846064678 33.8256921255133 110.551538190191
3410 76.9745864611703 33.5769242276848 110.551510688855
3420 77.1848786644526 33.3666120753414 110.551490739794
3430 77.3827589597623 33.1687196113125 110.551478571075
3440 77.5847534428174 32.9667187717653 110.551472214583
3450 77.8003853426717 32.7510948047969 110.551480147469
3460 78.0208428476015 32.530675880298 110.551518727899
3470 78.1978036567317 32.3537847712983 110.55158842803
3480 78.2440615766835 32.3075950631054 110.551656639789
3490 78.078168825059 32.4735064040119 110.551675229071
3500 77.6891633875065 32.8624569229307 110.551620310437
3510 77.1680008860947 33.3835125114417 110.551513397536
3520 76.6767495808838 33.8746550031416 110.551404584025
3530 76.3773597496635 34.1739799144599 110.551339664123
3540 76.3651295679006 34.1862106848547 110.551340252755
3550 76.6366591807286 33.9147409969441 110.551400177673
3560 77.0995725923278 33.4519157121983 110.551488304526
3570 77.6192872746733 32.932273046786 110.551560321459
3580 78.0837026074184 32.4678819720735 110.551584579492
3590 78.4488292212352 32.1027353846635 110.551564605899
