# Step PotentialEnergy(eV) KineticEnergy(eV) TotalEnergy(eV)
0 108.38154757282 62.380945977 170.76249354982
10 110.120308905291 60.6423628317542 170.762671737045
20 114.297837226557 56.465296877232 170.763134103789
30 120.113161945596 50.650705448621 170.763867394217
40 126.340759051521 44.4239606499833 170.764719701505
50 131.599846323075 39.1655236141693 170.765369937244
60 134.841429022429 35.9241045922186 170.765533614648
70 135.769370121369 34.9958115295314 170.765181650901
80 134.895248833819 35.8692815016525 170.764530335471
90 133.221657216337 37.5422362158829 170.76389343222
100 131.75919446201 39.004346348837 170.763540810847
110 131.104961702768 39.6586126177864 170.763574320554
120 131.279679169085 39.4841882956465 170.763867464731
130 131.900873457278 38.8633152384125 170.764188695691
140 132.516146742828 38.2482458443241 170.764392587152
150 132.834097445654 37.9303445915434 170.764442037197
160 132.795954516693 37.9684038185331 170.764358335226
170 132.544502010402 38.2197099411953 170.764211951597
180 132.317044942974 38.4470424574164 170.76408740039
190 132.316184011657 38.4478546783736 170.76403869003
200 132.622691784331 38.1413954962092 170.764087280541
210 133.161184025173 37.6030542057169 170.76423823089
220 133.702481101297 37.0619808334839 170.764461934781
230 133.925723657935 36.8389253526763 170.764649010612
240 133.58583103978 37.1788194095046 170.764650449284
250 132.715936258823 38.0484996619202 170.764435920743
260 131.660268538299 39.1038759634416 170.76414450174
270 130.876841751089 39.8870974876735 170.763939238762
280 130.695003358413 40.0688974493658 170.763900807779
290 131.184025484365 39.5799930968632 170.764018581228
300 132.163798793862 38.6003962706744 170.764195064537
310 133.343295751901 37.4210243799336 170.764320131835
320 134.478878281429 36.2855021061651 170.764380387595
330 135.408342490668 35.3561055154108 170.764448006079
340 135.9721201328 34.7924386766779 170.764558809477
350 135.980076393938 34.7845563549315 170.76463274887
360 135.328996372433 35.4355404990248 170.764536871458
370 134.181918198918 36.582329103962 170.76424730288
380 132.990957929807 37.772960679566 170.763918609373
390 132.269555739986 38.4942100494662 170.763765789452
400 132.272278884718 38.4916233340235 170.763902218741
410 132.820414595024 37.9438375636619 170.764252158686
420 133.411605776302 37.3529668073812 170.764572583683
430 133.573053026744 37.1915739271498 170.764626953894
440 133.202796797173 37.5615936134157 170.764390410589
450 132.61066561418 38.1534059748706 170.764071589051
460 132.229140975241 38.5347838632514 170.763924838492
470 132.260988603255 38.5030352431524 170.764023846408
480 132.57470839922 38.1895232151738 170.764231614393
490 132.886696777168 37.8776889494997 170.764385726668
500 132.987308988422 37.7771230347802 170.764432023202
510 132.827087682525 37.9372978866803 170.764385569205
520 132.495208784451 38.2690871600278 170.764295944479
530 132.139546804942 38.6247019107747 170.764248715716
540 131.844939123656 38.9193570713833 170.76429619504
550 131.559524576625 39.2048835560067 170.764408132631
560 131.135398300646 39.6291039526345 170.76450225328
570 130.450443423436 40.3140398901485 170.764483313585
580 129.548064396916 41.2162391097964 170.764303506713
590 128.700082059631 42.0639548235765 170.764036883207
600 128.295990214047 42.4678602440196 170.763850458067
610 128.603096791316 42.1607736482715 170.763870439588
620 129.584495805155 41.179579743272 170.764075548427
630 130.927036902817 39.837285938233 170.76432284105
640 132.239607546011 38.5249025173163 170.764510063327
650 133.204331962637 37.5603255404744 170.764657503111
660 133.576723847347 37.1880423015547 170.764766148902
670 133.206936371126 37.5577869050865 170.764723276213
680 132.191658034632 38.5727941850531 170.764452219685
690 130.963361971021 39.800698320905 170.764060291926
700 130.127946980237 40.6358053092949 170.763752289532
710 130.164023738127 40.5996313215952 170.763655059722
720 131.221828702206 39.5419525291215 170.763781231328
730 133.086929017445 37.6771759529412 170.764104970386
740 135.225621014223 35.5389423450792 170.764563359302
750 136.911154511851 33.8538166370178 170.764971148869
760 137.518252944304 33.2468256800033 170.765078624307
770 136.882517650535 33.8822886492798 170.764806299815
780 135.408998524603 35.3553434471206 170.764341971724
790 133.800770061762 36.963204028553 170.763974090315
800 132.635247024412 38.1286272685775 170.76387429299
810 132.102333581514 38.6616729352671 170.764006516781
820 132.04245698435 38.721742659838 170.764199644188
830 132.182937033611 38.5813835623058 170.764320595917
840 132.332990901306 38.4313806529314 170.764371554238
850 132.401680757454 38.3627244507307 170.764405208184
860 132.339520544857 38.4248954136443 170.764415958501
870 132.141707088362 38.622666039163 170.764373127525
880 131.877901728206 38.8863948602363 170.764296588442
890 131.655751678541 39.1084896742536 170.764241352795
900 131.540477500373 39.2237612606372 170.76423876101
910 131.514731881992 39.2495435926568 170.764275474649
920 131.507157290481 39.2571549610569 170.764312251538
930 131.455353984615 39.3089590984154 170.76431308303
940 131.355686731025 39.4085886234345 170.76427535446
950 131.263240339896 39.500984383899 170.764224723795
960 131.254905771424 39.5092647884186 170.764170559842
970 131.408590565104 39.3555292757625 170.764119840867
980 131.781980850499 38.9821439701319 170.764124820631
990 132.341942636375 38.4222871405395 170.764229776915
1000 132.915005612409 37.8493792503928 170.764384862802
1010 133.263466111167 37.5010169444615 170.764483055629
1020 133.237704780221 37.5267597465325 170.764464526754
1030 132.868689686618 37.8956463718876 170.764336058505
1040 132.360983160266 38.4031663980547 170.76414955832
1050 132.004380979917 38.7596370938073 170.764018073725
1060 132.000681724217 38.7633817625278 170.764063486745
1070 132.293383855024 38.4708970855467 170.76428094057
1080 132.581361320479 38.1831373446732 170.764498665152
1090 132.56203010895 38.2024945879071 170.764524696857
1100 132.198782350739 38.5655494291501 170.764331779889
1110 131.760196525402 39.0038716464052 170.764068171807
1120 131.611119006442 39.1527995442339 170.763918550676
1130 131.942896845724 38.8211004814181 170.763997327142
1140 132.605886773742 38.1584166371711 170.764303410913
1150 133.12517759461 37.639500257086 170.764677851696
1160 132.948305661184 37.8165434667115 170.764849127895
1170 131.836547043954 38.9280986848961 170.76464572885
1180 130.099108444477 40.6650763155599 170.764184760037
1190 128.421028831943 42.3427513373584 170.763780169302
1200 127.413212501102 43.3504498323705 170.763662333473
1210 127.271133664479 43.4926805443374 170.763814208816
1220 127.782208339472 42.9818329058779 170.76404124535
1230 128.595988345676 42.1681815657279 170.764169911404
1240 129.479577814404 41.2846185107034 170.764196325108
1250 130.345343585988 40.4189046949945 170.764248280982
1260 131.097584489297 39.6668037774766 170.764388266773
1270 131.556231972315 39.208274460802 170.764506433117
1280 131.592832607275 39.1716454612345 170.76447806851
1290 131.280449753796 39.483894003805 170.764343757601
1300 130.833746654636 39.9304854276592 170.764232082295
1310 130.434627596491 40.3295649440626 170.764192540553
1320 130.156145316553 40.6080539083816 170.764199224935
1330 129.994850082216 40.7693689430323 170.764219025248
1340 129.928011654376 40.8361967172626 170.764208371639
1350 129.978141531467 40.786014468457 170.764155999924
1360 130.220785481128 40.5433640902442 170.764149571372
1370 130.665461229547 40.0988184388096 170.764279668357
1380 131.140769405479 39.6237199388538 170.764489344332
1390 131.373550905132 39.3910682005178 170.764619105649
1400 131.203785020666 39.5607959849859 170.764581005652
1410 130.706418244495 40.0580093056395 170.764427550135
1420 130.122446840331 40.6418223294095 170.76426916974
1430 129.703668293585 41.0605065877869 170.764174881372
1440 129.604390008029 41.1597733848003 170.76416339283
1450 129.844379340935 40.9198497613782 170.764229102314
1460 130.319135213699 40.445193076116 170.764328289815
1470 130.868432906182 39.8959560105863 170.764388916769
1480 131.378923975663 39.3854593264101 170.764383302073
1490 131.826476788334 38.9378756149605 170.764352403294
1500 132.229240134076 38.5350942111081 170.764334345184
1510 132.599912600942 38.1644082940848 170.764320895026
1520 132.951953851532 37.8123495828875 170.764303434419
1530 133.304445743576 37.459866284697 170.764312028273
1540 133.639530573063 37.1248453739149 170.764375946978
1550 133.866517364713 36.8979468494691 170.764464214183
1560 133.867894240875 36.8966119426375 170.764506183513
1570 133.596037771328 37.1684369958454 170.764474767173
1580 133.110811673173 37.6535978213406 170.764409494513
1590 132.525275873368 38.2390829324048 170.764358805773
1600 131.933910846894 38.8304238567405 170.764334703635
1610 131.389332927388 39.3749829468356 170.764315874224
1620 130.928895454009 39.835376941352 170.764272395361
1630 130.614548513726 40.1496583900451 170.764206903771
1640 130.528139777453 40.2360384438137 170.764178221267
1650 130.696012420702 40.0682296934947 170.764242114197
1660 131.02206933873 39.7422963621121 170.764365700842
1670 131.336832071965 39.4276116771089 170.764443749074
1680 131.5395713529 39.2248340524853 170.764405405386
1690 131.692824492193 39.0714580215151 170.764282513708
1700 131.976834410644 38.7873368253544 170.764171235999
1710 132.553803679843 38.2103411533985 170.764144833242
1720 133.459775850409 37.3044437524077 170.764219602816
1730 134.574055717217 36.1903365471245 170.764392264342
1740 135.626554381951 35.1380897978846 170.764644179836
1750 136.242956093311 34.5219178989009 170.764873992212
1760 136.103330307129 34.661583905373 170.764914212502
1770 135.175404950949 35.5892865387541 170.764691489704
1780 133.808896530173 36.9554264349062 170.764322965079
1790 132.565542868855 38.1984743866414 170.764017255496
1800 131.914830290843 38.8490965305133 170.763926821356
1810 132.003650824072 38.760434347008 170.76408517108
1820 132.604360355504 38.1600429611509 170.764403316655
1830 133.249996365396 37.5147109686735 170.764707334069
1840 133.49444429497 37.2703792033439 170.764823498314
1850 133.168406761605 37.5962671089624 170.764673870567
1860 132.490200674596 38.2741292895742 170.76432996417
1870 131.955043492023 38.8089473229023 170.763990814926
1880 132.041060266707 38.7228171474121 170.763877414119
1890 132.891927139691 37.8721518606299 170.764079000321
1900 134.195694427236 36.5687694510193 170.764463878255
1910 135.376126874485 35.3886507395251 170.76477761401
1920 135.954545365014 34.8103128548402 170.764858219854
1930 135.788774210775 34.9759476224598 170.764721833235
1940 135.065651480227 35.6988050408938 170.764456521121
1950 134.176666467013 36.5874653472411 170.764131814254
1960 133.595229788706 37.1686306018009 170.763860390506
1970 133.691705949219 37.0721328627166 170.763838811935
1980 134.462063071246 36.302091675862 170.764154747108
1990 135.432683835262 35.331891568078 170.76457540334
2000 135.995019366048 34.7697232652273 170.764742631275
2010 135.893330603006 34.8712735931915 170.764604196198
2020 135.312446152862 35.4519492696257 170.764395422487
2030 134.574053428618 36.1902171259571 170.764270554576
2040 133.903987093937 36.8602304730009 170.764217566938
2050 133.416347014664 37.3478631575454 170.76421017221
2060 133.141184811714 37.623074729133 170.764259540847
2070 133.017942697487 37.7464138826555 170.764356580142
2080 132.915897122929 37.8485521905357 170.764449313465
2090 132.707892889836 38.0565915785819 170.764484468418
2100 132.345139935646 38.4193042934042 170.76444422905
2110 131.885358111521 38.8789832856692 170.76434139719
2120 131.474886207938 39.2893288821464 170.764215090085
2130 131.287267799281 39.4768707332896 170.764138532571
2140 131.417167942617 39.34700709894 170.764175041557
2150 131.795660494572 38.968641726912 170.764302221484
2160 132.228202249949 38.5361971777843 170.764399427733
2170 132.566045275153 38.1982999274962 170.764345202649
2180 132.869830895169 37.8943341124256 170.764165007594
2190 133.369103152286 37.3949375450722 170.764040697358
2200 134.211278431317 36.552854034269 170.764132465586
2210 135.236542707336 35.5278976134134 170.764440320749
2220 135.980151818079 34.7846475918006 170.76479940988
2230 135.924295821416 34.8406525351948 170.764948356611
2240 134.876559655574 35.8881855034268 170.764745159001
2250 133.164947308747 37.5993785294648 170.764325838212
2260 131.445457851614 39.3184798355096 170.763937687124
2270 130.332568811498 40.4311875284356 170.763756339934
2280 130.116964605461 40.6469019531055 170.763866558567
2290 130.641090822079 40.1231120433854 170.764202865464
2300 131.414510953285 39.3499913415597 170.764502294845
2310 131.990021850499 38.7745238808282 170.764545731327
2320 132.269052095667 38.4953597973915 170.764411893058
2330 132.414988325542 38.34932155316 170.764309878702
2340 132.569637363253 38.1947034232222 170.764340786476
2350 132.697060752219 38.0674161352865 170.764476887506
2360 132.618410205751 38.1461985775503 170.764608783301
2370 132.171642450067 38.592969425958 170.764611876025
2380 131.38747664074 39.3769644849233 170.764441125663
2390 130.545271908173 40.2189137202115 170.764185628385
2400 130.040076660506 40.7239289544184 170.764005614925
2410 130.15329527695 40.6106925477574 170.763987824708
2420 130.920643167878 39.8434453120811 170.764088479959
2430 132.174649581888 38.5895920730028 170.764241654891
2440 133.628417559999 37.1360482585254 170.764465818525
2450 134.872021120102 35.8927557704651 170.764776890567
2460 135.391234237749 35.3738050911079 170.765039328857
2470 134.78257372757 35.9824668482688 170.765040575838
2480 133.057262440786 37.7074327594279 170.764695200214
2490 130.755956131416 40.0081684429515 170.764124574368
2500 128.75106579573 42.0125393619918 170.763605157722
2510 127.821116576629 42.9423001896258 170.763416766255
2520 128.230759319993 42.5329122484182 170.763671568411
2530 129.574132892379 41.1900776322902 170.764210524669
2540 131.024847503084 39.7398204262207 170.764667929304
2550 131.869822581478 38.8949667670479 170.764789348526
2560 131.88387785105 38.8807694026515 170.764647253701
2570 131.259808949916 39.5046210319893 170.764429981905
2580 130.349089379279 40.4151268213299 170.764216200608
2590 129.519916191601 41.2441050139087 170.76402120551
2600 129.103459962127 41.6604413578481 170.763901319975
2610 129.299465944413 41.4644785820183 170.763944526431
2620 130.056752083912 40.7074040124151 170.764156096327
2630 131.077914415866 39.6864812900176 170.764395705884
2640 132.019067234045 38.7454334358884 170.764500669933
2650 132.714777096087 38.0496823051032 170.764459401191
2660 133.199841256756 37.5645611726864 170.764402429442
2670 133.539487786954 37.2249421373886 170.764429924342
2680 133.699922035501 37.0645609848837 170.764483020384
2690 133.62479865315 37.1396443834586 170.764443036609
2700 133.383078703254 37.38125643178 170.764335135034
2710 133.137166759585 37.6271113901909 170.764278149775
2720 132.992238545915 37.7720433523944 170.76428189831
2730 132.973535010931 37.7907329963625 170.764268007294
2740 133.11497342458 37.6492588775784 170.764232302158
2750 133.462110229581 37.302143494319 170.7642537239
2760 133.97473001682 36.7896325449591 170.764362561779
2770 134.492736576615 36.2717537078985 170.764490284513
2780 134.831842141765 35.9327109860181 170.764553127783
2790 134.901780130315 35.8627541780984 170.764534308413
2800 134.733437441426 36.0310419364473 170.764479377874
2810 134.41705007675 36.3473822336113 170.764432310362
2820 134.038125857237 36.7262632716504 170.764389128887
2830 133.675954781662 37.088364894266 170.764319675928
2840 133.436140660583 37.3280939798795 170.764234640463
2850 133.42907281265 37.3351336430679 170.764206455718
2860 133.673747049125 37.0905284265558 170.764275475681
2870 134.051261622098 36.7130999981179 170.764361620215
2880 134.413259794575 36.3511043169431 170.764364111518
2890 134.71327379039 36.0510510172779 170.764324807667
2900 134.958868929628 35.8054922779804 170.764361207608
2910 135.069781182432 35.6946800038698 170.764461186301
2920 134.896305861413 35.8681851171786 170.764490978592
2930 134.392338863929 36.372042242093 170.764381106022
2940 133.712810675354 37.0513673701293 170.764178045483
2950 133.154773013324 37.6091992375362 170.76397225086
2960 133.021450392118 37.7424183136266 170.763868705744
2970 133.46163348055 37.3023162528721 170.763949733422
2980 134.348354981986 36.4158556943865 170.764210676373
2990 135.289667785318 35.4748673587437 170.764535144062
3000 135.806643053227 34.9580885294023 170.76473158263
3010 135.613215081133 35.1514462430009 170.764661324134
3020 134.811188648356 35.9531841655371 170.764372813893
3030 133.824952059599 36.9390957848075 170.764047844406
3040 133.147903027977 37.6159206312523 170.76382365923
3050 133.13072841435 37.6330259974588 170.763754411809
3060 133.879323144988 36.8845580058337 170.763881150822
3070 135.193766778749 35.5704354743015 170.76420225305
3080 136.586367300609 34.1782286964859 170.764595997095
3090 137.468574833224 33.296289130223 170.764863963447
3100 137.442465866851 33.3224038943451 170.764869761196
3110 136.503866220257 34.260764612625 170.764630832882
3120 135.023291779081 35.7410004188416 170.764292197922
3130 133.537333565186 37.2266801846901 170.764013749876
3140 132.507830419334 38.2560454587507 170.763875878085
3150 132.184295159689 38.5795921186144 170.763887278303
3160 132.572008417827 38.1920307716165 170.764039189444
3170 133.446908177829 37.3173762483898 170.764284426219
3180 134.442827717635 36.3216614815612 170.764489199196
3190 135.25053985301 35.5140010963839 170.764540949394
3200 135.774305734081 34.9901988988587 170.76450463294
3210 136.054018653979 34.710501426861 170.76452008084
3220 136.088203637297 34.6763690855181 170.764572722815
3230 135.849014941493 34.9154942146004 170.764509156093
3240 135.471273317418 35.2929957177448 170.764269035163
3250 135.314896714724 35.4491106314868 170.764007346211
3260 135.739914184673 35.0240493122964 170.76396349697
3270 136.773623793833 33.9906107903086 170.764234584142
3280 137.986035277198 32.778630820466 170.764666097664
3290 138.723437148634 32.0415223040523 170.764959452686
3300 138.540935112456 32.2239863140893 170.764921426545
3310 137.483950962245 33.2806615951155 170.76461255736
3320 136.011312506403 34.7529354082918 170.764247914695
3330 134.68794955522 36.0760563546065 170.764005909826
3340 133.911622465256 36.8523304198636 170.763952885119
3350 133.797491179285 36.9665798399949 170.76407101928
3360 134.197456668199 36.5668330351385 170.764289703338
3370 134.808543702349 35.9559567820109 170.764500484359
3380 135.338139520899 35.4264470958545 170.764586616753
3390 135.672312902043 35.0921775378448 170.764490439888
3400 135.948768186082 34.8155111351044 170.764279321186
3410 136.449911233959 34.314210990791 170.76412222475
3420 137.357034388961 33.4071346768331 170.764169065794
3430 138.536982901361 32.2274588513969 170.764441752758
3440 139.519553657889 31.2452621465636 170.764815804452
3450 139.700398130251 31.064664254944 170.765062385195
3460 138.698986729778 32.0659724494756 170.764959179253
3470 136.683262057657 34.0812384691752 170.764500526832
3480 134.366463226975 36.3974944634032 170.763957690379
3490 132.609185403924 38.1544402227172 170.763625626641
3500 131.969438158307 38.7941642524542 170.763602410761
3510 132.519890286086 38.2439395541429 170.763829840229
3520 133.913097778542 36.8511067071849 170.764204485727
3530 135.55062803141 35.2139627578303 170.764590789241
3540 136.81181660147 33.9530069988684 170.764823600339
3550 137.308524089512 33.456295189925 170.764819279437
3560 137.012811948182 33.751847876452 170.764659824634
3570 136.1544783401 34.6100051568001 170.764483496901
3580 135.028074222109 35.7362696505842 170.764343872693
3590 133.896620385721 36.8676051224395 170.764225508161
